eta-Al_2O_3 + pyridi
M  (=MEV)       COUNTS          ERROR
2.005000e+000	1.372654e+000	3.523686e-001
2.015025e+000	1.463256e+000	3.837839e-001
2.025100e+000	1.437851e+000	3.784498e-001
2.035226e+000	1.529587e+000	3.892945e-001
2.045402e+000	2.695565e+000	5.237488e-001
2.055629e+000	1.721605e+000	4.144841e-001
2.065907e+000	1.735813e+000	4.192787e-001
2.076236e+000	2.245241e+000	4.720258e-001
2.086617e+000	1.463261e+000	3.780707e-001
2.097051e+000	1.832964e+000	4.241298e-001
2.107536e+000	1.653421e+000	4.023464e-001
2.118073e+000	1.791561e+000	4.156497e-001
2.128664e+000	1.711668e+000	4.089071e-001
2.139307e+000	9.937241e-001	3.033333e-001
2.150004e+000	1.633378e+000	3.893065e-001
2.160754e+000	2.087863e+000	4.460523e-001
2.171557e+000	1.956487e+000	4.257324e-001
2.182415e+000	2.478970e+000	4.828190e-001
2.193327e+000	1.710125e+000	3.938712e-001
2.204294e+000	1.992355e+000	4.242480e-001
2.215315e+000	1.792026e+000	4.047179e-001
2.226392e+000	1.455604e+000	3.615727e-001
2.237524e+000	1.859998e+000	4.069803e-001
2.248711e+000	1.610539e+000	3.834034e-001
2.259955e+000	2.263072e+000	4.459617e-001
2.271254e+000	1.658744e+000	3.835430e-001
2.282611e+000	2.401392e+000	4.635002e-001
2.294024e+000	2.294224e+000	4.495577e-001
2.305494e+000	1.883401e+000	4.052373e-001
2.317021e+000	1.719894e+000	3.831378e-001
2.328606e+000	1.622383e+000	3.733461e-001
2.340249e+000	1.804301e+000	3.879037e-001
2.351951e+000	2.626744e+000	4.757926e-001
2.363710e+000	2.180099e+000	4.306164e-001
2.375529e+000	2.802805e+000	4.821388e-001
2.387406e+000	1.334323e+000	3.351611e-001
2.399343e+000	1.511475e+000	3.563201e-001
2.411340e+000	1.921899e+000	4.000839e-001
2.423397e+000	1.941433e+000	3.990327e-001
2.435514e+000	2.349852e+000	4.361575e-001
2.447691e+000	1.488207e+000	3.428420e-001
2.459930e+000	1.578497e+000	3.543372e-001
2.472230e+000	2.436088e+000	4.438410e-001
2.484591e+000	1.739664e+000	3.708220e-001
2.497014e+000	2.406629e+000	4.376639e-001
2.509499e+000	1.568022e+000	3.502213e-001
2.522046e+000	1.529571e+000	3.423368e-001
2.534657e+000	2.141702e+000	4.092119e-001
2.547330e+000	1.975562e+000	3.911078e-001
2.560067e+000	2.227821e+000	4.131025e-001
2.572867e+000	1.790442e+000	3.659027e-001
2.585731e+000	2.279158e+000	4.139740e-001
2.598660e+000	1.402243e+000	3.276924e-001
2.611653e+000	1.957637e+000	3.842641e-001
2.624711e+000	2.657133e+000	4.466319e-001
2.637835e+000	2.240744e+000	4.047643e-001
2.651024e+000	1.940051e+000	3.775209e-001
2.664279e+000	2.279969e+000	4.111327e-001
2.677601e+000	2.706252e+000	4.453913e-001
2.690988e+000	2.268759e+000	4.048609e-001
2.704443e+000	2.466479e+000	4.224809e-001
2.717966e+000	2.589663e+000	4.276539e-001
2.731555e+000	2.371672e+000	4.117532e-001
2.745213e+000	2.592220e+000	4.263363e-001
2.758939e+000	1.871396e+000	3.635066e-001
2.772734e+000	2.727850e+000	4.405572e-001
2.786598e+000	2.764320e+000	4.347207e-001
2.800531e+000	1.913812e+000	3.614762e-001
2.814533e+000	2.281416e+000	3.971028e-001
2.828606e+000	2.435536e+000	4.072288e-001
2.842749e+000	2.644278e+000	4.253072e-001
2.856963e+000	2.657271e+000	4.232675e-001
2.871247e+000	3.163092e+000	4.589647e-001
2.885604e+000	2.901714e+000	4.422043e-001
2.900032e+000	2.479072e+000	4.057148e-001
2.914532e+000	3.392680e+000	4.740712e-001
2.929104e+000	1.913367e+000	3.559485e-001
2.943750e+000	2.318295e+000	3.912505e-001
2.958469e+000	2.673479e+000	4.162829e-001
2.973261e+000	2.871937e+000	4.292979e-001
2.988127e+000	2.535938e+000	4.046660e-001
3.003068e+000	2.630506e+000	4.114802e-001
3.018083e+000	2.635061e+000	4.109581e-001
3.033174e+000	2.387250e+000	3.895388e-001
3.048340e+000	2.255285e+000	3.767697e-001
3.063581e+000	2.484370e+000	3.927166e-001
3.078899e+000	2.422368e+000	3.878207e-001
3.094294e+000	2.691029e+000	4.069940e-001
3.109765e+000	2.613411e+000	4.015850e-001
3.125314e+000	2.850218e+000	4.166426e-001
3.140941e+000	3.232234e+000	4.409346e-001
3.156645e+000	2.720389e+000	4.066558e-001
3.172429e+000	1.865829e+000	3.332554e-001
3.188291e+000	2.653414e+000	3.949455e-001
3.204232e+000	2.614677e+000	3.913669e-001
3.220254e+000	2.657731e+000	3.964147e-001
3.236355e+000	2.942659e+000	4.136712e-001
3.252537e+000	3.527940e+000	4.522333e-001
3.268799e+000	2.815583e+000	4.051149e-001
3.285143e+000	2.412002e+000	3.744376e-001
3.301569e+000	2.215519e+000	3.539201e-001
3.318077e+000	3.008135e+000	4.133478e-001
3.334668e+000	2.416994e+000	3.689438e-001
3.351341e+000	2.534068e+000	3.784373e-001
3.368098e+000	2.632166e+000	3.832461e-001
3.384938e+000	2.543601e+000	3.760486e-001
3.401863e+000	2.671352e+000	3.848266e-001
3.418872e+000	2.526658e+000	3.689462e-001
3.435966e+000	2.927713e+000	3.990984e-001
3.453146e+000	2.879593e+000	3.922891e-001
3.470412e+000	2.450974e+000	3.624661e-001
3.487764e+000	2.826250e+000	3.888257e-001
3.505203e+000	2.764151e+000	3.834297e-001
3.522729e+000	3.107166e+000	4.057919e-001
3.540342e+000	2.873860e+000	3.868026e-001
3.558044e+000	3.200994e+000	4.062450e-001
3.575834e+000	2.632454e+000	3.679324e-001
3.593714e+000	2.225112e+000	3.373502e-001
3.611682e+000	3.097436e+000	3.971793e-001
3.629741e+000	2.429023e+000	3.500126e-001
3.647889e+000	2.456962e+000	3.510326e-001
3.666129e+000	2.800890e+000	3.746842e-001
3.684459e+000	3.171763e+000	3.955995e-001
3.702882e+000	2.553758e+000	3.556899e-001
3.721396e+000	2.374971e+000	3.413336e-001
3.740003e+000	2.755903e+000	3.671619e-001
3.758703e+000	2.622228e+000	3.572249e-001
3.777497e+000	2.598178e+000	3.528088e-001
3.796384e+000	2.775782e+000	3.645957e-001
3.815366e+000	3.040368e+000	3.795606e-001
3.834443e+000	2.943378e+000	3.742317e-001
3.853615e+000	2.463670e+000	3.402919e-001
3.872883e+000	3.034263e+000	3.776088e-001
3.892248e+000	2.575212e+000	3.435622e-001
3.911709e+000	3.881989e+000	4.227972e-001
3.931267e+000	2.482825e+000	3.374173e-001
3.950924e+000	2.641783e+000	3.480334e-001
3.970678e+000	2.680139e+000	3.480580e-001
3.990532e+000	2.536814e+000	3.377987e-001
4.010484e+000	3.199220e+000	3.794626e-001
4.030537e+000	2.848346e+000	3.566497e-001
4.050689e+000	2.579112e+000	3.388103e-001
4.070943e+000	2.198368e+000	3.126815e-001
4.091297e+000	2.720206e+000	3.439359e-001
4.111754e+000	3.378257e+000	3.831319e-001
4.132312e+000	2.906676e+000	3.544044e-001
4.152974e+000	2.765025e+000	3.432338e-001
4.173738e+000	3.247803e+000	3.724491e-001
4.194607e+000	2.553549e+000	3.296526e-001
4.215580e+000	2.678485e+000	3.360603e-001
4.236658e+000	2.813104e+000	3.451555e-001
4.257841e+000	2.568476e+000	3.279676e-001
4.279130e+000	2.805906e+000	3.414734e-001
4.300526e+000	2.608037e+000	3.282167e-001
4.322029e+000	3.090954e+000	3.553240e-001
4.343639e+000	2.767226e+000	3.363097e-001
4.365357e+000	2.451281e+000	3.161953e-001
4.387184e+000	2.825101e+000	3.375730e-001
4.409120e+000	3.229430e+000	3.610670e-001
4.431166e+000	2.712979e+000	3.288643e-001
4.453321e+000	2.601580e+000	3.213941e-001
4.475588e+000	2.182479e+000	2.927994e-001
4.497966e+000	3.273466e+000	3.568489e-001
4.520456e+000	2.785341e+000	3.298484e-001
4.543058e+000	2.749428e+000	3.254839e-001
4.565773e+000	2.908010e+000	3.339399e-001
4.588602e+000	2.633970e+000	3.161018e-001
4.611545e+000	2.828083e+000	3.269648e-001
4.634603e+000	2.678792e+000	3.183906e-001
4.657776e+000	2.301536e+000	2.935247e-001
4.681065e+000	2.277073e+000	2.913247e-001
4.704470e+000	2.664870e+000	3.141345e-001
4.727993e+000	2.781445e+000	3.184376e-001
4.751633e+000	2.166687e+000	2.800460e-001
4.775391e+000	2.184841e+000	2.812610e-001
4.799268e+000	2.561324e+000	3.044561e-001
4.823264e+000	2.687534e+000	3.096938e-001
4.847380e+000	2.716841e+000	3.115183e-001
4.871617e+000	2.733653e+000	3.117814e-001
4.895975e+000	2.528582e+000	2.992944e-001
4.920455e+000	2.751209e+000	3.106177e-001
4.945057e+000	2.356967e+000	2.865309e-001
4.969782e+000	2.708822e+000	3.063681e-001
4.994631e+000	2.966409e+000	3.203241e-001
5.019604e+000	3.003641e+000	3.211645e-001
5.044703e+000	2.668442e+000	3.007278e-001
5.069926e+000	2.544817e+000	2.936593e-001
5.095276e+000	2.590336e+000	2.952892e-001
5.120752e+000	3.133855e+000	3.243796e-001
5.146356e+000	2.716317e+000	3.002748e-001
5.172088e+000	2.961746e+000	3.130338e-001
5.197948e+000	2.324310e+000	2.776402e-001
5.223938e+000	2.734236e+000	2.987412e-001
5.250058e+000	2.401050e+000	2.789342e-001
5.276308e+000	2.388875e+000	2.768679e-001
5.302690e+000	2.075551e+000	2.581394e-001
5.329203e+000	2.521095e+000	2.841740e-001
5.355849e+000	2.359634e+000	2.729568e-001
5.382628e+000	2.542477e+000	2.824858e-001
5.409541e+000	2.538925e+000	2.810733e-001
5.436589e+000	2.981260e+000	3.050866e-001
5.463772e+000	2.586916e+000	2.822369e-001
5.491091e+000	2.340226e+000	2.676413e-001
5.518547e+000	2.292997e+000	2.641192e-001
5.546139e+000	2.348866e+000	2.667008e-001
5.573870e+000	1.773144e+000	2.314305e-001
5.601739e+000	2.221759e+000	2.575148e-001
5.629748e+000	2.518985e+000	2.736793e-001
5.657897e+000	2.557507e+000	2.748510e-001
5.686186e+000	2.423965e+000	2.672670e-001
5.714617e+000	2.265468e+000	2.572256e-001
5.743190e+000	2.471363e+000	2.673833e-001
5.771906e+000	2.238736e+000	2.544892e-001
5.800766e+000	2.303831e+000	2.582315e-001
5.829770e+000	2.267756e+000	2.544051e-001
5.858919e+000	2.436287e+000	2.629106e-001
5.888213e+000	2.579015e+000	2.697336e-001
5.917654e+000	2.516477e+000	2.657104e-001
5.947242e+000	2.520083e+000	2.646273e-001
5.976979e+000	2.183750e+000	2.462620e-001
6.006863e+000	2.316462e+000	2.526699e-001
6.036898e+000	2.373500e+000	2.554948e-001
6.067082e+000	2.475326e+000	2.601811e-001
6.097418e+000	2.553035e+000	2.628361e-001
6.127905e+000	2.494732e+000	2.595556e-001
6.158545e+000	2.273526e+000	2.468909e-001
6.189337e+000	2.512807e+000	2.592181e-001
6.220284e+000	2.581856e+000	2.612166e-001
6.251385e+000	2.129896e+000	2.365740e-001
6.282642e+000	2.690138e+000	2.656684e-001
6.314056e+000	2.575220e+000	2.592674e-001
6.345626e+000	2.454514e+000	2.517630e-001
6.377354e+000	2.517414e+000	2.554512e-001
6.409241e+000	2.128177e+000	2.336178e-001
6.441287e+000	2.209504e+000	2.368830e-001
6.473494e+000	2.473849e+000	2.506578e-001
6.505861e+000	2.538995e+000	2.522309e-001
6.538390e+000	2.676235e+000	2.585818e-001
6.571082e+000	2.524957e+000	2.507044e-001
6.603938e+000	2.105275e+000	2.277960e-001
6.636958e+000	2.285369e+000	2.372016e-001
6.670142e+000	2.480277e+000	2.467884e-001
6.703493e+000	2.646397e+000	2.535724e-001
6.737011e+000	2.203273e+000	2.304974e-001
6.770696e+000	2.067467e+000	2.226620e-001
6.804549e+000	2.669628e+000	2.517525e-001
6.838572e+000	2.437256e+000	2.404064e-001
6.872765e+000	2.318370e+000	2.340949e-001
6.907129e+000	2.507032e+000	2.432096e-001
6.941664e+000	2.303197e+000	2.315340e-001
6.976373e+000	2.279179e+000	2.300632e-001
7.011255e+000	2.400629e+000	2.350488e-001
7.046311e+000	2.506398e+000	2.394573e-001
7.081542e+000	2.905929e+000	2.573790e-001
7.116950e+000	2.366303e+000	2.315927e-001
7.152535e+000	2.339288e+000	2.297570e-001
7.188298e+000	2.322458e+000	2.278904e-001
7.224240e+000	2.582251e+000	2.392171e-001
7.260361e+000	2.357128e+000	2.276841e-001
7.296663e+000	2.381630e+000	2.289986e-001
7.333146e+000	2.213087e+000	2.196458e-001
7.369812e+000	2.420217e+000	2.291775e-001
7.406661e+000	2.266938e+000	2.211349e-001
7.443694e+000	2.338817e+000	2.238161e-001
7.480912e+000	2.780071e+000	2.430023e-001
7.518317e+000	2.382478e+000	2.247099e-001
7.555909e+000	2.400760e+000	2.244500e-001
7.593688e+000	2.920571e+000	2.472302e-001
7.631657e+000	2.353441e+000	2.212441e-001
7.669815e+000	2.634534e+000	2.332998e-001
7.708164e+000	2.366189e+000	2.206555e-001
7.746705e+000	2.457002e+000	2.240531e-001
7.785438e+000	2.393369e+000	2.208173e-001
7.824366e+000	2.370647e+000	2.184197e-001
7.863487e+000	2.314234e+000	2.154536e-001
7.902805e+000	2.529884e+000	2.246652e-001
7.942319e+000	2.536660e+000	2.241950e-001
7.982031e+000	2.822830e+000	2.359767e-001
8.021941e+000	2.410381e+000	2.174256e-001
8.062050e+000	2.179238e+000	2.058805e-001
8.102361e+000	2.509156e+000	2.204941e-001
8.142873e+000	2.688224e+000	2.280264e-001
8.183588e+000	2.418731e+000	2.154756e-001
8.224506e+000	2.333867e+000	2.102221e-001
8.265629e+000	2.288214e+000	2.081110e-001
8.306957e+000	2.174893e+000	2.015803e-001
8.348492e+000	2.503545e+000	2.157648e-001
8.390234e+000	2.495422e+000	2.153968e-001
8.432186e+000	2.522331e+000	2.160024e-001
8.474347e+000	2.331767e+000	2.066512e-001
8.516718e+000	2.553133e+000	2.164554e-001
8.559302e+000	2.653409e+000	2.198012e-001
8.602098e+000	2.496301e+000	2.118057e-001
8.645108e+000	2.366977e+000	2.059922e-001
8.688334e+000	2.726343e+000	2.207156e-001
8.731775e+000	2.791288e+000	2.228490e-001
8.775434e+000	2.489107e+000	2.094087e-001
8.819311e+000	2.107888e+000	1.921853e-001
8.863407e+000	2.812469e+000	2.219377e-001
8.907724e+000	2.360057e+000	2.025692e-001
8.952263e+000	2.662999e+000	2.140895e-001
8.997025e+000	2.941160e+000	2.240932e-001
9.042010e+000	2.487671e+000	2.059295e-001
9.087220e+000	2.630000e+000	2.106384e-001
9.132656e+000	2.454078e+000	2.028337e-001
9.178319e+000	2.617881e+000	2.091682e-001
9.224211e+000	2.700458e+000	2.115887e-001
9.270332e+000	2.730102e+000	2.124511e-001
9.316684e+000	2.292585e+000	1.941129e-001
9.363267e+000	2.411660e+000	1.984980e-001
9.410083e+000	2.567472e+000	2.043261e-001
9.457134e+000	2.415018e+000	1.977433e-001
9.504419e+000	2.660158e+000	2.068169e-001
9.551941e+000	2.317567e+000	1.923313e-001
9.599701e+000	2.203531e+000	1.873064e-001
9.647700e+000	2.772989e+000	2.097552e-001
9.695939e+000	2.412410e+000	1.951235e-001
9.744419e+000	2.071954e+000	1.802834e-001
9.793140e+000	2.662342e+000	2.038434e-001
9.842106e+000	2.356029e+000	1.911858e-001
9.891316e+000	1.907206e+000	1.715302e-001
9.940773e+000	2.288885e+000	1.876601e-001
9.990477e+000	2.651171e+000	2.014548e-001
1.004043e+001	2.738055e+000	2.041538e-001
1.009063e+001	2.270451e+000	1.853438e-001
1.014108e+001	2.568675e+000	1.968035e-001
1.019179e+001	2.149029e+000	1.796240e-001
1.024275e+001	2.231609e+000	1.825375e-001
1.029396e+001	2.462478e+000	1.911253e-001
1.034543e+001	2.097823e+000	1.760151e-001
1.039716e+001	2.657840e+000	1.976831e-001
1.044914e+001	2.153325e+000	1.773981e-001
1.050139e+001	2.128823e+000	1.760303e-001
1.055390e+001	2.338124e+000	1.840372e-001
1.060667e+001	2.296395e+000	1.819250e-001
1.065970e+001	2.221582e+000	1.785204e-001
1.071300e+001	2.372429e+000	1.838664e-001
1.076656e+001	2.141646e+000	1.742082e-001
1.082040e+001	2.269054e+000	1.787696e-001
1.087450e+001	1.778371e+000	1.579974e-001
1.092887e+001	2.089535e+000	1.705986e-001
1.098352e+001	2.068962e+000	1.690118e-001
1.103843e+001	2.167272e+000	1.726268e-001
1.109363e+001	1.962261e+000	1.635751e-001
1.114910e+001	2.089763e+000	1.684725e-001
1.120484e+001	2.091669e+000	1.680892e-001
1.126087e+001	2.357762e+000	1.778309e-001
1.131717e+001	2.238887e+000	1.729309e-001
1.137376e+001	1.998657e+000	1.630841e-001
1.143062e+001	2.097999e+000	1.661734e-001
1.148778e+001	1.844410e+000	1.554188e-001
1.154522e+001	2.154830e+000	1.676368e-001
1.160294e+001	1.994235e+000	1.607504e-001
1.166096e+001	1.917515e+000	1.569715e-001
1.171926e+001	2.439027e+000	1.767781e-001
1.177786e+001	1.931763e+000	1.568386e-001
1.183675e+001	1.986518e+000	1.586915e-001
1.189593e+001	1.959150e+000	1.569020e-001
1.195541e+001	2.074460e+000	1.611114e-001
1.201519e+001	1.549605e+000	1.388285e-001
1.207526e+001	1.921549e+000	1.541722e-001
1.213564e+001	2.003701e+000	1.571504e-001
1.219632e+001	1.906965e+000	1.529120e-001
1.225730e+001	1.909978e+000	1.526198e-001
1.231859e+001	1.995447e+000	1.554976e-001
1.238018e+001	1.720720e+000	1.438979e-001
1.244208e+001	1.849586e+000	1.489417e-001
1.250429e+001	1.870138e+000	1.493186e-001
1.256681e+001	2.285175e+000	1.647790e-001
1.262965e+001	2.065680e+000	1.561286e-001
1.269279e+001	2.119025e+000	1.575564e-001
1.275626e+001	2.099585e+000	1.564549e-001
1.282004e+001	2.021597e+000	1.533101e-001
1.288414e+001	2.043983e+000	1.536745e-001
1.294856e+001	2.302724e+000	1.626533e-001
1.301330e+001	2.111527e+000	1.553623e-001
1.307837e+001	2.036868e+000	1.522121e-001
1.314376e+001	1.957619e+000	1.488113e-001
1.320948e+001	1.841731e+000	1.438275e-001
1.327553e+001	2.241792e+000	1.583532e-001
1.334190e+001	1.990555e+000	1.488454e-001
1.340861e+001	1.944861e+000	1.468822e-001
1.347566e+001	1.744334e+000	1.387029e-001
1.354304e+001	2.018859e+000	1.487011e-001
1.361075e+001	1.539707e+000	1.294981e-001
1.367880e+001	1.660636e+000	1.342133e-001
1.374720e+001	1.721354e+000	1.361411e-001
1.381593e+001	1.811310e+000	1.394186e-001
1.388501e+001	1.838849e+000	1.400021e-001
1.395444e+001	1.452640e+000	1.241138e-001
1.402421e+001	1.534441e+000	1.272394e-001
1.409433e+001	1.531183e+000	1.266851e-001
1.416480e+001	1.371488e+000	1.196315e-001
1.423563e+001	1.740537e+000	1.342569e-001
1.430681e+001	1.595162e+000	1.283248e-001
1.437834e+001	1.460711e+000	1.224370e-001
1.445023e+001	1.550566e+000	1.258514e-001
1.452248e+001	1.728597e+000	1.325048e-001
1.459510e+001	1.602688e+000	1.273276e-001
1.466807e+001	1.592843e+000	1.265878e-001
1.474141e+001	1.297504e+000	1.139333e-001
1.481512e+001	1.448956e+000	1.201691e-001
1.488920e+001	1.225907e+000	1.102137e-001
1.496364e+001	1.172282e+000	1.073479e-001
1.503846e+001	1.365789e+000	1.157128e-001
1.511365e+001	1.374025e+000	1.157497e-001
1.518922e+001	1.441689e+000	1.183156e-001
1.526517e+001	1.456406e+000	1.186661e-001
1.534149e+001	1.515965e+000	1.205896e-001
1.541820e+001	1.285550e+000	1.107801e-001
1.549529e+001	1.278163e+000	1.102827e-001
1.557277e+001	1.173522e+000	1.053531e-001
1.565063e+001	1.146663e+000	1.038498e-001
1.572888e+001	1.194111e+000	1.058315e-001
1.580753e+001	1.314388e+000	1.106244e-001
1.588657e+001	1.161727e+000	1.038103e-001
1.596600e+001	1.371500e+000	1.124272e-001
1.604583e+001	1.143281e+000	1.024155e-001
1.612606e+001	1.203026e+000	1.047961e-001
1.620669e+001	1.227321e+000	1.055672e-001
1.628772e+001	1.121815e+000	1.007028e-001
1.636916e+001	1.094623e+000	9.927469e-002
1.645101e+001	1.264671e+000	1.063632e-001
1.653326e+001	1.097657e+000	9.888026e-002
1.661593e+001	1.167367e+000	1.015441e-001
1.669901e+001	1.273167e+000	1.059146e-001
1.678250e+001	1.135266e+000	9.981778e-002
1.686642e+001	1.209537e+000	1.027468e-001
1.695075e+001	1.208858e+000	1.024415e-001
1.703550e+001	1.159558e+000	1.000443e-001
1.712068e+001	1.386939e+000	1.091739e-001
1.720628e+001	1.148861e+000	9.907801e-002
1.729232e+001	1.012509e+000	9.278335e-002
1.737878e+001	1.143062e+000	9.837784e-002
1.746567e+001	1.049496e+000	9.405901e-002
1.755300e+001	1.144797e+000	9.791089e-002
1.764077e+001	1.099684e+000	9.578716e-002
1.772897e+001	1.061958e+000	9.391292e-002
1.781761e+001	1.223982e+000	1.004971e-001
1.790670e+001	1.009717e+000	9.105702e-002
1.799623e+001	9.863505e-001	8.980168e-002
1.808622e+001	1.020824e+000	9.118584e-002
1.817665e+001	1.184476e+000	9.802936e-002
1.826753e+001	1.156451e+000	9.655387e-002
1.835887e+001	1.204988e+000	9.820092e-002
1.845066e+001	1.101077e+000	9.364058e-002
1.854292e+001	9.909262e-001	8.870993e-002
1.863563e+001	1.030304e+000	9.019513e-002
1.872881e+001	1.145315e+000	9.478890e-002
1.882245e+001	1.030342e+000	8.972380e-002
1.891657e+001	1.019877e+000	8.907460e-002
1.901115e+001	1.133343e+000	9.371311e-002
1.910620e+001	1.076172e+000	9.107814e-002
1.920174e+001	1.144210e+000	9.368157e-002
1.929774e+001	1.045928e+000	8.929205e-002
1.939423e+001	1.051963e+000	8.943748e-002
1.949121e+001	1.044000e+000	8.892722e-002
1.958866e+001	1.030990e+000	8.814327e-002
1.968660e+001	9.785637e-001	8.569176e-002
1.978504e+001	1.056520e+000	8.885410e-002
1.988396e+001	1.073123e+000	8.934939e-002
1.998338e+001	9.696638e-001	8.478012e-002
2.008330e+001	9.283866e-001	8.279334e-002
2.018372e+001	9.756956e-001	8.469093e-002
2.028464e+001	1.154132e+000	9.189732e-002
2.038606e+001	1.115002e+000	9.008060e-002
2.048799e+001	1.084252e+000	8.870152e-002
2.059043e+001	1.165007e+000	9.175871e-002
2.069338e+001	9.836199e-001	8.412792e-002
2.079685e+001	1.006367e+000	8.493740e-002
2.090083e+001	9.754369e-001	8.342642e-002
2.100534e+001	1.043735e+000	8.613054e-002
2.111036e+001	1.038785e+000	8.576814e-002
2.121592e+001	9.447832e-001	8.162818e-002
2.132200e+001	1.003067e+000	8.394895e-002
2.142861e+001	1.132141e+000	8.902020e-002
2.153575e+001	1.093311e+000	8.729523e-002
2.164343e+001	1.092604e+000	8.712991e-002
2.175165e+001	8.280854e-001	7.566999e-002
2.186040e+001	1.061587e+000	8.554806e-002
2.196971e+001	9.555913e-001	8.099304e-002
2.207956e+001	1.130266e+000	8.788549e-002
2.218995e+001	1.163848e+000	8.901354e-002
2.230090e+001	9.207188e-001	7.904737e-002
2.241241e+001	1.003713e+000	8.231282e-002
2.252447e+001	9.642832e-001	8.052606e-002
2.263709e+001	1.016329e+000	8.250238e-002
2.275028e+001	1.116881e+000	8.628987e-002
2.286403e+001	9.354923e-001	7.884477e-002
2.297835e+001	9.539569e-001	7.943141e-002
2.309324e+001	9.813643e-001	8.038817e-002
2.320871e+001	9.151395e-001	7.743370e-002
2.332475e+001	1.030718e+000	8.203653e-002
2.344138e+001	1.018505e+000	8.141609e-002
2.355858e+001	8.980694e-001	7.624796e-002
2.367638e+001	9.446646e-001	7.804538e-002
2.379476e+001	9.405718e-001	7.766654e-002
2.391373e+001	1.020306e+000	8.077256e-002
2.403330e+001	9.124318e-001	7.621802e-002
2.415347e+001	8.898926e-001	7.510208e-002
2.427423e+001	1.109483e+000	8.368476e-002
2.439561e+001	9.531052e-001	7.741812e-002
2.451758e+001	1.034464e+000	8.048655e-002
2.464017e+001	8.048146e-001	7.083287e-002
2.476337e+001	9.964343e-001	7.867226e-002
2.488719e+001	9.357662e-001	7.612196e-002
2.501163e+001	9.720668e-001	7.743544e-002
2.513668e+001	9.327990e-001	7.569268e-002
2.526237e+001	1.034109e+000	7.956193e-002
2.538868e+001	9.932546e-001	7.782458e-002
2.551562e+001	8.907727e-001	7.358965e-002
2.564320e+001	1.141737e+000	8.315988e-002
2.577142e+001	1.204555e+000	8.529720e-002
2.590028e+001	9.918876e-001	7.727824e-002
2.602978e+001	1.029722e+000	7.858593e-002
2.615993e+001	9.604422e-001	7.576071e-002
2.629073e+001	9.665819e-001	7.587811e-002
2.642218e+001	8.556510e-001	7.125764e-002
2.655429e+001	1.055092e+000	7.900988e-002
2.668706e+001	9.243049e-001	7.383083e-002
2.682050e+001	9.551780e-001	7.491416e-002
2.695460e+001	9.631001e-001	7.506973e-002
2.708937e+001	9.476232e-001	7.434265e-002
2.722482e+001	1.028908e+000	7.730633e-002
2.736094e+001	9.704656e-001	7.493787e-002
2.749775e+001	8.517109e-001	7.008019e-002
2.763524e+001	9.296909e-001	7.309942e-002
2.777341e+001	9.853436e-001	7.512148e-002
2.791228e+001	1.022490e+000	7.639784e-002
2.805184e+001	1.116348e+000	7.970072e-002
2.819210e+001	1.130296e+000	8.006477e-002
2.833306e+001	8.983259e-001	7.125226e-002
2.847473e+001	9.286257e-001	7.229558e-002
2.861710e+001	9.290392e-001	7.219251e-002
2.876019e+001	9.682697e-001	7.357441e-002
2.890399e+001	9.054440e-001	7.106019e-002
2.904851e+001	1.090745e+000	7.783224e-002
2.919375e+001	9.739175e-001	7.341748e-002
2.933972e+001	9.900948e-001	7.391654e-002
2.948642e+001	1.024519e+000	7.508018e-002
2.963385e+001	1.024811e+000	7.499690e-002
2.978202e+001	9.141279e-001	7.073009e-002
2.993093e+001	9.808260e-001	7.317445e-002
3.008058e+001	1.028149e+000	7.481699e-002
3.023099e+001	9.659668e-001	7.242764e-002
3.038214e+001	9.267521e-001	7.083375e-002
3.053405e+001	1.009168e+000	7.380358e-002
3.068672e+001	9.686568e-001	7.219286e-002
3.084016e+001	9.255242e-001	7.046496e-002
3.099436e+001	9.453909e-001	7.109027e-002
3.114933e+001	1.072993e+000	7.564694e-002
3.130507e+001	9.882598e-001	7.246618e-002
3.146160e+001	1.010834e+000	7.318214e-002
3.161891e+001	1.129648e+000	7.723236e-002
3.177700e+001	1.039584e+000	7.399708e-002
3.193589e+001	9.953205e-001	7.232249e-002
3.209557e+001	1.006363e+000	7.261753e-002
3.225604e+001	9.121206e-001	6.902816e-002
3.241732e+001	1.007520e+000	7.243798e-002
3.257941e+001	8.960273e-001	6.822544e-002
3.274231e+001	9.593687e-001	7.050945e-002
3.290602e+001	1.057256e+000	7.389720e-002
3.307055e+001	9.670137e-001	7.055838e-002
3.323590e+001	9.640492e-001	7.036626e-002
3.340208e+001	1.010241e+000	7.193081e-002
3.356909e+001	8.927915e-001	6.749935e-002
3.373694e+001	8.441564e-001	6.556655e-002
3.390562e+001	8.275549e-001	6.484952e-002
3.407515e+001	1.055506e+000	7.315828e-002
3.424553e+001	8.633296e-001	6.606011e-002
3.441675e+001	9.167381e-001	6.800719e-002
3.458883e+001	9.564226e-001	6.934854e-002
3.476178e+001	1.014472e+000	7.134279e-002
3.493559e+001	8.675496e-001	6.591565e-002
3.511027e+001	8.301525e-001	6.438764e-002
3.528582e+001	1.020800e+000	7.129930e-002
3.546224e+001	9.669045e-001	6.932367e-002
3.563955e+001	9.003178e-001	6.682003e-002
3.581775e+001	8.904868e-001	6.637042e-002
3.599684e+001	9.711736e-001	6.924029e-002
3.617682e+001	8.616887e-001	6.516242e-002
3.635771e+001	9.803059e-001	6.941491e-002
3.653950e+001	8.271401e-001	6.371502e-002
3.672219e+001	9.401057e-001	6.785916e-002
3.690581e+001	9.719826e-001	6.892470e-002
3.709034e+001	9.311422e-001	6.737035e-002
3.727579e+001	9.256247e-001	6.709698e-002
3.746217e+001	9.701239e-001	6.860147e-002
3.764948e+001	9.994663e-001	6.952141e-002
3.783772e+001	9.633946e-001	6.819245e-002
3.802691e+001	8.845555e-001	6.528100e-002
3.821705e+001	8.186418e-001	6.272568e-002
3.840813e+001	8.973738e-001	6.560346e-002
3.860017e+001	9.873459e-001	6.874721e-002
3.879317e+001	9.300542e-001	6.665304e-002
3.898714e+001	8.329133e-001	6.301095e-002
3.918208e+001	9.402832e-001	6.690260e-002
3.937799e+001	1.064337e+000	7.111792e-002
3.957488e+001	9.847768e-001	6.835396e-002
3.977275e+001	9.177733e-001	6.595050e-002
3.997162e+001	9.578522e-001	6.732070e-002
4.017147e+001	8.449430e-001	6.318215e-002
4.037233e+001	1.036663e+000	6.992488e-002
4.057419e+001	8.451824e-001	6.309461e-002
4.077707e+001	9.470027e-001	6.671797e-002
4.098095e+001	9.324675e-001	6.616484e-002
4.118586e+001	1.011730e+000	6.890858e-002
4.139179e+001	9.035376e-001	6.508084e-002
4.159875e+001	1.004327e+000	6.859814e-002
4.180674e+001	1.018617e+000	6.904045e-002
4.201577e+001	9.685890e-001	6.727362e-002
4.222585e+001	9.093341e-001	6.513256e-002
4.243698e+001	9.361232e-001	6.604055e-002
4.264917e+001	9.575008e-001	6.674251e-002
4.286241e+001	9.861648e-001	6.765821e-002
4.307673e+001	1.011422e+000	6.846263e-002
4.329211e+001	8.045829e-001	6.100576e-002
4.350857e+001	7.187021e-001	5.762649e-002
4.372611e+001	9.048773e-001	6.460483e-002
4.394474e+001	9.115250e-001	6.479259e-002
4.416447e+001	8.908598e-001	6.402431e-002
4.438529e+001	9.273216e-001	6.526839e-002
4.460722e+001	8.875630e-001	6.383345e-002
4.483026e+001	8.236094e-001	6.143948e-002
4.505441e+001	9.286327e-001	6.522123e-002
4.527968e+001	8.439260e-001	6.216068e-002
4.550607e+001	9.139389e-001	6.465164e-002
4.573360e+001	1.053270e+000	6.936907e-002
4.596227e+001	1.029594e+000	6.855483e-002
4.619208e+001	1.162331e+000	7.279813e-002
4.642304e+001	1.332895e+000	7.791041e-002
4.665516e+001	1.605446e+000	8.546147e-002
4.688843e+001	1.670174e+000	8.712146e-002
4.712287e+001	1.556200e+000	8.404918e-002
4.735849e+001	1.633485e+000	8.605616e-002
4.759528e+001	1.710548e+000	8.803947e-002
4.783326e+001	1.579261e+000	8.455632e-002
4.807243e+001	1.491623e+000	8.215951e-002
4.831279e+001	1.400209e+000	7.957441e-002
4.855435e+001	1.177958e+000	7.297876e-002
4.879712e+001	1.211185e+000	7.397341e-002
4.904111e+001	1.115650e+000	7.098316e-002
4.928631e+001	1.169069e+000	7.264090e-002
4.953275e+001	1.050488e+000	6.881988e-002
4.978041e+001	1.074187e+000	6.957965e-002
5.002931e+001	1.265925e+000	7.549198e-002
5.027946e+001	1.403852e+000	7.950600e-002
5.053086e+001	1.367994e+000	7.845743e-002
5.078351e+001	1.315010e+000	7.692833e-002
5.103743e+001	1.246634e+000	7.490055e-002
5.129262e+001	1.115919e+000	7.084607e-002
5.154908e+001	1.113608e+000	7.077663e-002
5.180683e+001	1.083248e+000	6.978196e-002
5.206586e+001	1.042343e+000	6.841764e-002
5.232619e+001	9.159889e-001	6.412759e-002
5.258782e+001	9.926334e-001	6.674304e-002
5.285076e+001	9.761433e-001	6.617513e-002
5.311502e+001	9.843289e-001	6.645237e-002
5.338059e+001	1.101970e+000	7.032326e-002
5.364749e+001	1.043348e+000	6.841894e-002
5.391573e+001	1.041423e+000	6.836815e-002
5.418531e+001	1.035073e+000	6.815808e-002
5.445624e+001	1.178895e+000	7.275525e-002
5.472852e+001	1.109236e+000	7.059342e-002
5.500216e+001	1.215656e+000	7.391327e-002
5.527717e+001	1.189238e+000	7.308351e-002
5.555356e+001	1.058422e+000	6.894178e-002
5.583133e+001	1.044513e+000	6.850014e-002
5.611049e+001	1.081369e+000	6.972668e-002
5.639104e+001	1.083739e+000	6.979116e-002
5.667299e+001	1.032674e+000	6.813779e-002
5.695636e+001	9.544960e-001	6.552357e-002
5.724114e+001	9.240081e-001	6.447377e-002
5.752735e+001	1.086824e+000	6.991248e-002
5.781498e+001	1.173030e+000	7.262012e-002
5.810406e+001	1.017233e+000	6.764347e-002
5.839458e+001	1.155341e+000	7.211570e-002
5.868655e+001	1.133487e+000	7.145490e-002
5.897998e+001	1.059573e+000	6.910598e-002
5.927488e+001	1.025243e+000	6.801779e-002
5.957126e+001	1.088170e+000	7.008136e-002
5.986911e+001	1.043686e+000	6.867380e-002
6.016846e+001	1.105499e+000	7.071228e-002
6.046930e+001	9.970074e-001	6.717892e-002
6.077165e+001	1.038754e+000	6.857947e-002
6.107551e+001	1.086892e+000	7.019783e-002
6.138088e+001	9.922084e-001	6.709497e-002
6.168779e+001	1.202343e+000	7.391696e-002
6.199623e+001	1.013344e+000	6.788675e-002
6.230621e+001	1.165628e+000	7.286391e-002
6.261774e+001	1.006146e+000	6.772473e-002
6.293083e+001	1.082539e+000	7.031817e-002
6.324548e+001	1.001438e+000	6.765116e-002
6.356171e+001	9.670704e-001	6.652915e-002
6.387952e+001	1.027175e+000	6.863309e-002
6.419891e+001	1.048752e+000	6.937498e-002
6.451991e+001	1.049796e+000	6.947921e-002
6.484250e+001	1.172003e+000	7.341810e-002
6.516671e+001	1.124063e+000	7.195413e-002
6.549255e+001	1.124369e+000	7.202537e-002
6.582001e+001	1.143974e+000	7.266728e-002
6.614911e+001	1.073098e+000	7.045408e-002
6.647985e+001	1.136809e+000	7.254363e-002
6.681225e+001	1.087448e+000	7.097046e-002
6.714631e+001	1.087166e+000	7.098624e-002
6.748204e+001	1.121714e+000	7.217068e-002
6.781945e+001	1.095980e+000	7.138353e-002
6.815855e+001	1.107679e+000	7.178815e-002
6.849934e+001	9.092557e-001	6.509161e-002
6.884184e+001	1.099412e+000	7.160568e-002
6.918605e+001	9.914069e-001	6.807508e-002
6.953199e+001	1.095189e+000	7.162580e-002
6.987965e+001	1.094090e+000	7.165508e-002
7.022905e+001	1.051565e+000	7.029175e-002
7.058019e+001	1.051381e+000	7.030931e-002
7.093309e+001	1.081935e+000	7.136677e-002
7.128776e+001	9.156731e-001	6.569196e-002
7.164420e+001	9.909084e-001	6.837364e-002
7.200243e+001	1.062698e+000	7.088799e-002
7.236244e+001	1.053518e+000	7.070070e-002
7.272425e+001	1.118126e+000	7.293090e-002
7.308787e+001	1.162384e+000	7.444575e-002
7.345331e+001	1.037451e+000	7.036629e-002
7.382057e+001	1.027722e+000	7.008821e-002
7.418967e+001	9.731145e-001	6.826736e-002
7.456062e+001	9.429258e-001	6.727532e-002
7.493343e+001	1.036445e+000	7.064304e-002
7.530809e+001	1.050597e+000	7.118867e-002
7.568464e+001	1.194582e+000	7.597831e-002
7.606306e+001	9.995268e-001	6.955002e-002
7.644337e+001	1.227651e+000	7.714493e-002
7.682559e+001	1.038728e+000	7.106366e-002
7.720972e+001	1.099588e+000	7.320651e-002
7.759576e+001	1.158692e+000	7.521212e-002
7.798374e+001	1.105602e+000	7.355838e-002
7.837366e+001	1.134304e+000	7.456191e-002
7.876553e+001	1.047453e+000	7.172731e-002
7.915936e+001	1.202654e+000	7.693606e-002
7.955516e+001	1.353987e+000	8.172220e-002
7.995293e+001	1.215277e+000	7.754811e-002
8.035270e+001	1.254710e+000	7.887462e-002
8.075446e+001	1.242230e+000	7.853924e-002
8.115823e+001	1.266258e+000	7.938974e-002
8.156402e+001	1.384349e+000	8.308586e-002
8.197184e+001	1.331752e+000	8.160507e-002
8.238169e+001	1.167964e+000	7.650483e-002
8.279360e+001	1.167567e+000	7.661957e-002
8.320757e+001	1.027522e+000	7.199772e-002
8.362361e+001	1.256690e+000	7.971346e-002
8.404173e+001	1.244205e+000	7.936119e-002
8.446193e+001	1.184890e+000	7.753269e-002
8.488424e+001	1.269881e+000	8.041295e-002
8.530866e+001	1.415704e+000	8.506785e-002
8.573520e+001	1.406199e+000	8.495584e-002
8.616388e+001	1.257403e+000	8.044443e-002
8.659470e+001	1.301784e+000	8.191700e-002
8.702767e+001	1.564010e+000	8.985963e-002
8.746281e+001	1.510581e+000	8.837754e-002
8.790013e+001	1.670468e+000	9.303243e-002
8.833963e+001	1.526485e+000	8.909959e-002
8.878133e+001	1.378588e+000	8.485627e-002
8.922524e+001	1.523712e+000	8.927520e-002
8.967136e+001	1.502353e+000	8.870695e-002
9.011972e+001	1.363639e+000	8.460721e-002
9.057032e+001	1.312919e+000	8.319432e-002
9.102317e+001	1.490714e+000	8.880799e-002
9.147829e+001	1.399161e+000	8.617886e-002
9.193568e+001	1.295062e+000	8.305380e-002
9.239536e+001	1.550546e+000	9.101095e-002
9.285733e+001	1.482104e+000	8.907580e-002
9.332162e+001	1.765606e+000	9.732604e-002
9.378823e+001	1.573641e+000	9.201521e-002
9.425717e+001	1.664928e+000	9.475919e-002
9.472845e+001	1.750727e+000	9.732542e-002
9.520210e+001	1.586996e+000	9.283930e-002
9.567810e+001	1.749255e+000	9.762793e-002
9.615649e+001	1.611479e+000	9.380326e-002
9.663728e+001	1.358578e+000	8.622790e-002
9.712046e+001	1.360986e+000	8.644847e-002
9.760606e+001	1.384238e+000	8.728984e-002
9.809410e+001	1.474741e+000	9.027490e-002
9.858457e+001	1.394406e+000	8.797448e-002
9.907749e+001	1.419804e+000	8.890205e-002
9.957288e+001	1.403620e+000	8.851624e-002
1.000707e+002	1.385816e+000	8.803139e-002
1.005711e+002	1.380565e+000	8.801978e-002
1.010740e+002	1.361773e+000	8.763038e-002
1.015793e+002	1.403062e+000	8.911485e-002
1.020872e+002	1.442944e+000	9.043235e-002
1.025977e+002	1.347814e+000	8.747386e-002
1.031106e+002	1.380698e+000	8.868911e-002
1.036262e+002	1.351252e+000	8.787882e-002
1.041443e+002	1.359910e+000	8.834728e-002
1.046651e+002	1.499760e+000	9.296049e-002
1.051884e+002	1.565584e+000	9.511402e-002
1.057143e+002	1.480817e+000	9.260590e-002
1.062429e+002	1.655155e+000	9.800927e-002
1.067741e+002	1.513118e+000	9.382769e-002
1.073080e+002	1.499271e+000	9.353925e-002
1.078445e+002	1.632855e+000	9.778750e-002
1.083837e+002	1.500541e+000	9.389388e-002
1.089257e+002	1.862963e+000	1.047267e-001
1.094703e+002	1.763127e+000	1.020389e-001
1.100176e+002	1.748360e+000	1.018690e-001
1.105677e+002	1.826987e+000	1.042805e-001
1.111206e+002	1.832591e+000	1.046115e-001
1.116762e+002	1.578023e+000	9.723082e-002
1.122346e+002	1.706607e+000	1.012297e-001
1.127957e+002	1.541185e+000	9.636863e-002
1.133597e+002	1.618145e+000	9.889208e-002
1.139265e+002	1.584389e+000	9.799739e-002
1.144961e+002	1.494304e+000	9.527606e-002
1.150686e+002	1.735780e+000	1.028349e-001
1.156440e+002	1.561845e+000	9.771400e-002
1.162222e+002	1.574336e+000	9.829116e-002
1.168033e+002	1.539564e+000	9.726151e-002
1.173873e+002	1.596953e+000	9.916195e-002
1.179742e+002	1.734484e+000	1.035061e-001
1.185641e+002	1.786447e+000	1.051972e-001
1.191569e+002	1.720836e+000	1.034404e-001
1.197527e+002	1.771818e+000	1.051878e-001
1.203515e+002	1.646509e+000	1.015865e-001
1.209532e+002	1.639432e+000	1.014796e-001
1.215580e+002	1.602918e+000	1.005039e-001
1.221658e+002	1.868309e+000	1.087060e-001
1.227766e+002	1.779669e+000	1.063521e-001
1.233905e+002	1.876888e+000	1.094266e-001
1.240075e+002	1.659893e+000	1.030437e-001
1.246275e+002	1.798609e+000	1.073341e-001
1.252506e+002	1.943127e+000	1.117375e-001
1.258769e+002	1.737571e+000	1.059005e-001
1.265063e+002	1.850062e+000	1.094436e-001
1.271388e+002	1.747504e+000	1.064520e-001
1.277745e+002	1.805925e+000	1.083542e-001
1.284134e+002	1.681868e+000	1.047836e-001
1.290554e+002	1.894112e+000	1.113534e-001
1.297007e+002	1.654595e+000	1.040633e-001
1.303492e+002	1.864211e+000	1.106937e-001
1.310009e+002	1.871345e+000	1.111734e-001
1.316559e+002	2.028238e+000	1.159105e-001
1.323142e+002	1.996504e+000	1.152497e-001
1.329758e+002	2.048357e+000	1.169319e-001
1.336407e+002	2.254213e+000	1.226933e-001
1.343089e+002	1.883755e+000	1.123432e-001
1.349804e+002	1.897588e+000	1.129642e-001
1.356553e+002	1.820371e+000	1.107517e-001
1.363336e+002	1.954636e+000	1.148663e-001
1.370153e+002	1.870173e+000	1.125671e-001
1.377003e+002	1.749210e+000	1.090187e-001
1.383888e+002	1.591769e+000	1.041483e-001
1.390808e+002	1.759571e+000	1.096361e-001
1.397762e+002	1.729675e+000	1.088211e-001
1.404751e+002	1.670699e+000	1.071580e-001
1.411774e+002	1.654137e+000	1.067756e-001
1.418833e+002	1.718617e+000	1.090256e-001
1.425927e+002	1.942586e+000	1.160329e-001
1.433057e+002	1.748012e+000	1.102044e-001
1.440222e+002	1.802285e+000	1.121366e-001
1.447423e+002	1.764722e+000	1.111289e-001
1.454661e+002	1.842840e+000	1.136831e-001
1.461934e+002	1.494653e+000	1.024843e-001
1.469243e+002	1.525190e+000	1.036739e-001
1.476590e+002	1.664475e+000	1.085026e-001
1.483973e+002	1.597369e+000	1.064444e-001
1.491393e+002	1.772810e+000	1.122537e-001
1.498849e+002	1.596203e+000	1.065410e-001
1.506344e+002	1.665850e+000	1.090123e-001
1.513876e+002	1.707566e+000	1.106941e-001
1.521445e+002	1.597965e+000	1.072415e-001
1.529052e+002	1.644600e+000	1.089322e-001
1.536697e+002	1.692990e+000	1.106799e-001
1.544381e+002	1.726881e+000	1.119390e-001
1.552103e+002	1.486959e+000	1.040535e-001
1.559863e+002	1.435945e+000	1.023907e-001
1.567662e+002	1.439455e+000	1.025526e-001
1.575501e+002	1.336859e+000	9.892799e-002
1.583378e+002	1.352555e+000	9.969641e-002
1.591295e+002	1.445609e+000	1.032485e-001
1.599252e+002	1.315947e+000	9.866515e-002
1.607248e+002	1.279758e+000	9.735192e-002
1.615284e+002	1.310432e+000	9.857413e-002
1.623361e+002	1.069015e+000	8.923325e-002
1.631478e+002	1.133578e+000	9.197870e-002
1.639635e+002	1.223582e+000	9.564123e-002
1.647833e+002	1.146386e+000	9.272697e-002
1.656072e+002	1.037575e+000	8.841299e-002
1.664353e+002	1.198287e+000	9.519807e-002
1.672675e+002	1.183617e+000	9.456027e-002
1.681038e+002	1.339784e+000	1.006266e-001
1.689443e+002	1.370862e+000	1.020308e-001
1.697891e+002	1.316801e+000	1.001691e-001
1.706380e+002	1.360913e+000	1.019318e-001
1.714912e+002	1.338830e+000	1.013264e-001
1.723486e+002	1.283726e+000	9.927604e-002
1.732104e+002	1.355447e+000	1.020504e-001
1.740764e+002	1.281163e+000	9.932493e-002
1.749468e+002	1.065579e+000	9.075479e-002
1.758216e+002	1.072632e+000	9.114484e-002
1.767007e+002	1.414392e+000	1.046864e-001
1.775842e+002	1.313114e+000	1.009852e-001
1.784721e+002	1.345217e+000	1.023580e-001
1.793645e+002	1.096054e+000	9.245651e-002
1.802613e+002	1.249948e+000	9.892570e-002
1.811626e+002	1.395230e+000	1.047786e-001
1.820684e+002	1.294748e+000	1.010833e-001
1.829788e+002	1.310852e+000	1.017230e-001
1.838936e+002	1.273342e+000	1.002744e-001
1.848131e+002	1.042704e+000	9.085616e-002
1.857372e+002	1.441634e+000	1.069664e-001
1.866659e+002	1.240968e+000	9.950588e-002
1.875992e+002	1.317439e+000	1.027170e-001
1.885372e+002	1.262152e+000	1.006404e-001
1.894799e+002	1.098136e+000	9.388315e-002
1.904273e+002	1.085700e+000	9.343854e-002
1.913794e+002	1.148331e+000	9.611382e-002
1.923363e+002	1.044461e+000	9.173258e-002
1.932980e+002	1.131696e+000	9.559736e-002
1.942645e+002	1.188524e+000	9.805965e-002
1.952358e+002	1.213646e+000	9.932230e-002
1.962120e+002	1.118385e+000	9.556192e-002
1.971931e+002	1.206908e+000	9.933008e-002
1.981790e+002	1.160189e+000	9.743334e-002
1.991699e+002	1.206363e+000	9.937053e-002
2.001658e+002	1.095622e+000	9.483989e-002
2.011666e+002	1.133215e+000	9.653606e-002
2.021724e+002	1.006409e+000	9.109246e-002
2.031833e+002	1.140431e+000	9.721354e-002
2.041992e+002	1.095023e+000	9.541944e-002
2.052202e+002	1.077382e+000	9.477325e-002
2.062463e+002	1.089265e+000	9.535591e-002
2.072775e+002	1.067568e+000	9.441716e-002
2.083139e+002	1.052647e+000	9.373649e-002
2.093555e+002	1.128909e+000	9.715447e-002
2.104023e+002	1.029424e+000	9.286810e-002
2.114543e+002	1.023824e+000	9.279557e-002
2.125116e+002	1.099062e+000	9.636042e-002
2.135741e+002	1.166269e+000	9.938607e-002
2.146420e+002	9.925327e-001	9.170728e-002
2.157152e+002	1.088074e+000	9.612627e-002
2.167938e+002	9.560550e-001	9.015707e-002
2.178777e+002	1.040586e+000	9.413823e-002
2.189671e+002	1.073125e+000	9.560046e-002
2.200620e+002	9.925173e-001	9.204581e-002
2.211623e+002	1.161789e+000	9.977502e-002
2.222681e+002	1.153700e+000	9.958909e-002
2.233794e+002	1.079764e+000	9.647004e-002
2.244963e+002	1.063378e+000	9.577642e-002
2.256188e+002	1.067971e+000	9.601996e-002
2.267469e+002	1.106760e+000	9.779774e-002
2.278806e+002	9.694410e-001	9.165760e-002
2.290200e+002	1.091956e+000	9.753531e-002
2.301651e+002	1.047667e+000	9.563379e-002
2.313159e+002	9.450718e-001	9.094854e-002
2.324725e+002	1.061342e+000	9.637165e-002
2.336349e+002	9.600754e-001	9.169449e-002
2.348031e+002	1.081650e+000	9.743393e-002
2.359771e+002	1.040867e+000	9.568047e-002
2.371570e+002	9.916439e-001	9.344115e-002
2.383428e+002	1.063080e+000	9.687875e-002
2.395345e+002	9.771828e-001	9.302089e-002
2.407321e+002	9.684490e-001	9.261494e-002
2.419358e+002	1.023858e+000	9.521058e-002
2.431455e+002	1.043805e+000	9.629663e-002
2.443612e+002	9.257724e-001	9.086375e-002
2.455830e+002	1.137041e+000	1.008246e-001
2.468109e+002	1.004397e+000	9.481006e-002
2.480450e+002	1.083285e+000	9.849261e-002
2.492852e+002	9.996792e-001	9.472435e-002
2.505316e+002	1.036601e+000	9.655824e-002
2.517843e+002	1.006467e+000	9.522630e-002
2.530432e+002	8.831339e-001	8.917964e-002
2.543084e+002	9.961004e-001	9.492459e-002
2.555800e+002	9.441058e-001	9.253440e-002
2.568579e+002	9.081289e-001	9.080602e-002
2.581422e+002	1.044313e+000	9.739308e-002
2.594329e+002	1.243922e+000	1.064460e-001
2.607300e+002	1.017552e+000	9.650523e-002
2.620337e+002	1.254331e+000	1.072007e-001
2.633439e+002	1.091704e+000	9.996862e-002
2.646606e+002	1.025965e+000	9.691622e-002
2.659839e+002	1.031051e+000	9.726196e-002
2.673138e+002	9.794647e-001	9.486909e-002
2.686504e+002	9.835795e-001	9.513450e-002
2.699936e+002	9.520698e-001	9.376597e-002
2.713436e+002	1.306024e+000	1.099346e-001
2.727003e+002	8.807840e-001	9.031062e-002
2.740638e+002	1.126119e+000	1.022057e-001
2.754341e+002	1.072641e+000	9.981709e-002
2.768113e+002	1.019115e+000	9.746535e-002
2.781954e+002	1.045014e+000	9.886295e-002
2.795863e+002	1.066138e+000	9.981424e-002
2.809843e+002	1.101868e+000	1.015183e-001
2.823892e+002	9.456353e-001	9.412047e-002
2.838011e+002	1.045048e+000	9.915891e-002
2.852202e+002	8.810046e-001	9.109669e-002
2.866463e+002	9.700168e-001	9.566604e-002
2.880795e+002	1.048927e+000	9.948927e-002
2.895199e+002	8.510810e-001	8.967523e-002
2.909675e+002	1.160457e+000	1.049144e-001
2.924223e+002	1.040170e+000	9.950147e-002
2.938844e+002	1.113825e+000	1.030316e-001
2.953539e+002	8.884375e-001	9.204533e-002
2.968306e+002	9.556283e-001	9.550828e-002
2.983148e+002	8.623722e-001	9.073155e-002
2.998063e+002	1.128866e+000	1.040397e-001
3.013054e+002	1.109954e+000	1.033155e-001
3.028119e+002	9.692618e-001	9.654421e-002
3.043260e+002	9.902146e-001	9.757333e-002
3.058476e+002	1.031084e+000	9.967838e-002
3.073768e+002	1.089863e+000	1.027164e-001
3.089137e+002	1.048845e+000	1.008724e-001
3.104583e+002	1.010589e+000	9.899949e-002
3.120106e+002	1.047854e+000	1.008489e-001
3.135706e+002	1.050296e+000	1.010569e-001
3.151385e+002	8.998836e-001	9.353742e-002
3.167142e+002	9.306623e-001	9.516304e-002
3.182977e+002	1.061899e+000	1.017429e-001
3.198892e+002	1.018924e+000	9.972445e-002
3.214887e+002	9.956064e-001	9.875525e-002
3.230961e+002	1.216848e+000	1.092566e-001
3.247116e+002	1.051853e+000	1.016461e-001
3.263351e+002	8.729792e-001	9.268134e-002
3.279668e+002	1.171188e+000	1.075172e-001
3.296066e+002	9.091592e-001	9.484898e-002
3.312547e+002	1.074307e+000	1.031368e-001
3.329109e+002	9.381460e-001	9.648026e-002
3.345755e+002	9.331869e-001	9.627619e-002
3.362484e+002	9.666370e-001	9.803009e-002
3.379296e+002	8.821303e-001	9.371673e-002
3.396192e+002	9.476138e-001	9.723769e-002
3.413173e+002	1.077591e+000	1.038964e-001
3.430239e+002	1.072561e+000	1.038260e-001
3.447390e+002	1.060781e+000	1.033320e-001
3.464627e+002	1.058380e+000	1.031230e-001
3.481950e+002	1.059992e+000	1.032095e-001
3.499360e+002	1.065468e+000	1.036247e-001
3.516857e+002	8.978013e-001	9.518620e-002
3.534441e+002	1.089123e+000	1.048631e-001
3.552113e+002	8.159039e-001	9.087664e-002
3.569874e+002	9.688993e-001	9.919403e-002
3.587724e+002	9.278869e-001	9.711575e-002
3.605662e+002	1.052626e+000	1.034325e-001
3.623690e+002	1.003994e+000	1.011194e-001
3.641809e+002	9.653736e-001	9.928007e-002
3.660018e+002	8.896074e-001	9.535475e-002
3.678318e+002	9.760419e-001	9.992604e-002
3.696710e+002	1.026214e+000	1.025796e-001
3.715193e+002	7.573841e-001	8.833686e-002
3.733769e+002	8.909116e-001	9.588858e-002
3.752438e+002	1.069685e+000	1.049911e-001
3.771200e+002	1.019207e+000	1.025233e-001
3.790056e+002	1.191569e+000	1.110155e-001
3.809007e+002	1.103203e+000	1.070473e-001
3.828051e+002	1.151501e+000	1.094564e-001
3.847192e+002	1.164889e+000	1.102650e-001
3.866428e+002	1.101010e+000	1.072907e-001
3.885760e+002	1.180666e+000	1.110606e-001
3.905189e+002	1.033752e+000	1.039186e-001
3.924715e+002	1.140312e+000	1.092574e-001
3.944338e+002	1.231131e+000	1.136752e-001
3.964060e+002	1.221374e+000	1.132919e-001
3.983880e+002	1.159647e+000	1.105352e-001
4.003800e+002	1.109477e+000	1.083285e-001
4.023819e+002	1.177939e+000	1.117627e-001
4.043938e+002	1.066888e+000	1.063495e-001
4.064158e+002	1.010776e+000	1.035309e-001
4.084478e+002	1.113476e+000	1.087281e-001
4.104901e+002	1.099633e+000	1.082683e-001
4.125425e+002	1.173907e+000	1.120432e-001
4.146052e+002	1.047340e+000	1.059451e-001
4.166783e+002	9.493817e-001	1.009189e-001
4.187616e+002	1.093750e+000	1.083423e-001
4.208555e+002	9.562249e-001	1.015161e-001
4.229597e+002	9.558408e-001	1.017882e-001
4.250745e+002	8.817733e-001	9.790599e-002
4.271999e+002	1.067668e+000	1.077730e-001
4.293359e+002	1.032597e+000	1.061577e-001
4.314826e+002	9.422007e-001	1.014719e-001
4.336400e+002	8.394757e-001	9.577086e-002
4.358082e+002	8.577442e-001	9.688061e-002
4.379873e+002	8.580270e-001	9.707779e-002
4.401772e+002	9.454961e-001	1.021468e-001
4.423781e+002	9.745803e-001	1.037768e-001
4.445900e+002	9.071923e-001	1.002299e-001
4.468129e+002	7.804460e-001	9.304680e-002
4.490470e+002	7.954569e-001	9.405187e-002
4.512922e+002	1.047959e+000	1.081206e-001
4.535486e+002	1.043530e+000	1.080498e-001
4.558164e+002	9.460285e-001	1.029698e-001
4.580955e+002	9.873937e-001	1.053226e-001
4.603860e+002	1.177468e+000	1.151865e-001
4.626879e+002	1.223492e+000	1.176347e-001
4.650013e+002	9.826613e-001	1.055479e-001
4.673264e+002	8.893716e-001	1.004619e-001
4.696630e+002	9.857347e-001	1.059483e-001
4.720113e+002	1.027250e+000	1.081913e-001
4.743714e+002	9.469771e-001	1.039093e-001
4.767432e+002	1.120533e+000	1.131164e-001
4.791269e+002	9.717811e-001	1.054885e-001
4.815226e+002	8.885661e-001	1.010843e-001
4.839302e+002	9.573705e-001	1.050495e-001
4.863498e+002	9.167981e-001	1.028797e-001
4.887816e+002	7.666044e-001	9.425650e-002
4.912255e+002	8.654395e-001	1.003223e-001
4.936816e+002	8.295555e-001	9.828556e-002
4.961500e+002	1.155293e+000	1.160727e-001
4.986308e+002	1.121083e+000	1.145149e-001
4.999371e+002	1.075800e+000	5.002849e-001
